# time = 0
# Grid points = 169
# Domain Size = 14
# Pressure (Pa) = 101325
#             1_pos             2_posf             3_rho             4_dvisc             5_uvel             6_vvel             7_wvel
  -6.9480339426e+00  -7.0000000000e+00   1.0000000000e+00   1.2500000000e-02  -3.4229322691e+00   1.0261840862e-02   5.7532018892e-02
  -6.8620492137e+00  -6.8960678851e+00   1.0000000000e+00   1.2500000000e-02  -3.3465848636e+00   1.9374209255e-02   1.1393203257e-01
  -6.7940283830e+00  -6.8280305422e+00   1.0000000000e+00   1.2500000000e-02  -3.2864835267e+00   2.5514452998e-02   1.5771493208e-01
  -6.7259122043e+00  -6.7600262238e+00   1.0000000000e+00   1.2500000000e-02  -3.2268117549e+00   3.0238682756e-02   2.0032165440e-01
  -6.6574153829e+00  -6.6917981847e+00   1.0000000000e+00   1.2500000000e-02  -3.1676300814e+00   3.3255621817e-02   2.4145252864e-01
  -6.5881479988e+00  -6.6230325811e+00   1.0000000000e+00   1.2500000000e-02  -3.1090211307e+00   3.4311917177e-02   2.8076755069e-01
  -6.5175578863e+00  -6.5532634166e+00   1.0000000000e+00   1.2500000000e-02  -3.0510656614e+00   3.3176336540e-02   3.1788227089e-01
  -6.4449048555e+00  -6.4818523560e+00   1.0000000000e+00   1.2500000000e-02  -2.9938634066e+00   2.9615571065e-02   3.5232197141e-01
  -6.3692184075e+00  -6.4079573550e+00   1.0000000000e+00   1.2500000000e-02  -2.9375677052e+00   2.3367898757e-02   3.8345319131e-01
  -6.2892339051e+00  -6.3304794601e+00   1.0000000000e+00   1.2500000000e-02  -2.8824423268e+00   1.4117128351e-02   4.1038083000e-01
  -6.2033241197e+00  -6.2479883502e+00   1.0000000000e+00   1.2500000000e-02  -2.8289621619e+00   1.4747974482e-03   4.3179164357e-01
  -6.1095053915e+00  -6.1586598893e+00   1.0000000000e+00   1.2500000000e-02  -2.7779909667e+00  -1.4999778493e-02   4.4573754100e-01
  -6.0057232894e+00  -6.0603508936e+00   1.0000000000e+00   1.2500000000e-02  -2.7310255925e+00  -3.5664154711e-02   4.4945424038e-01
  -5.8906866619e+00  -5.9510956852e+00   1.0000000000e+00   1.2500000000e-02  -2.6902598569e+00  -6.0434694414e-02   4.3960154834e-01
  -5.7650816588e+00  -5.8302776387e+00   1.0000000000e+00   1.2500000000e-02  -2.6578730767e+00  -8.8270412788e-02   4.1352872911e-01
  -5.6319203785e+00  -5.6998856789e+00   1.0000000000e+00   1.2500000000e-02  -2.6344201311e+00  -1.1701069584e-01   3.7124486376e-01
  -5.4949797902e+00  -5.5639550780e+00   1.0000000000e+00   1.2500000000e-02  -2.6178399330e+00  -1.4404770367e-01   3.1595824151e-01
  -5.3569763083e+00  -5.4260045023e+00   1.0000000000e+00   1.2500000000e-02  -2.6043732780e+00  -1.6726296188e-01   2.5220995125e-01
  -5.2195195175e+00  -5.2879481144e+00   1.0000000000e+00   1.2500000000e-02  -2.5902253719e+00  -1.8536901894e-01   1.8389395564e-01
  -5.0839504063e+00  -5.1510909206e+00   1.0000000000e+00   1.2500000000e-02  -2.5726786909e+00  -1.9783753126e-01   1.1357773143e-01
  -4.9515029795e+00  -5.0168098921e+00   1.0000000000e+00   1.2500000000e-02  -2.5504853328e+00  -2.0478774310e-01   4.2476812475e-02
  -4.8229102723e+00  -4.8861960670e+00   1.0000000000e+00   1.2500000000e-02  -2.5235670333e+00  -2.0676657130e-01  -2.9336761193e-02
  -4.6983026550e+00  -4.7596244777e+00   1.0000000000e+00   1.2500000000e-02  -2.4923155071e+00  -2.0442009475e-01  -1.0249301452e-01
  -4.5776154756e+00  -4.6369808323e+00   1.0000000000e+00   1.2500000000e-02  -2.4570009847e+00  -1.9824936502e-01  -1.7775703225e-01
  -4.4611148873e+00  -4.5182501189e+00   1.0000000000e+00   1.2500000000e-02  -2.4175123352e+00  -1.8855705197e-01  -2.5550556090e-01
  -4.3496825895e+00  -4.4039796557e+00   1.0000000000e+00   1.2500000000e-02  -2.3734275829e+00  -1.7556589293e-01  -3.3532072236e-01
  -4.2446959226e+00  -4.2953855234e+00   1.0000000000e+00   1.2500000000e-02  -2.3244108231e+00  -1.5964692487e-01  -4.1576415850e-01
  -4.1475155223e+00  -4.1940063218e+00   1.0000000000e+00   1.2500000000e-02  -2.2707321783e+00  -1.4150414036e-01  -4.9455924651e-01
  -4.0590689158e+00  -4.1010247227e+00   1.0000000000e+00   1.2500000000e-02  -2.2134933587e+00  -1.2214029376e-01  -5.6920754180e-01
  -3.9791037906e+00  -4.0171131090e+00   1.0000000000e+00   1.2500000000e-02  -2.1539169460e+00  -1.0247246281e-01  -6.3825337106e-01
  -3.9064895500e+00  -3.9410944723e+00   1.0000000000e+00   1.2500000000e-02  -2.0927558631e+00  -8.3087906095e-02  -7.0145202035e-01
  -3.8401383770e+00  -3.8718846277e+00   1.0000000000e+00   1.2500000000e-02  -2.0306491612e+00  -6.4393497636e-02  -7.5893949838e-01
  -3.7790058686e+00  -3.8083921263e+00   1.0000000000e+00   1.2500000000e-02  -1.9680362952e+00  -4.6632148550e-02  -8.1109586511e-01
  -3.7221627879e+00  -3.7496196108e+00   1.0000000000e+00   1.2500000000e-02  -1.9052060858e+00  -2.9938540515e-02  -8.5837035103e-01
  -3.6688139610e+00  -3.6947059649e+00   1.0000000000e+00   1.2500000000e-02  -1.8423447954e+00  -1.4382091607e-02  -9.0119140222e-01
  -3.6182876637e+00  -3.6429219572e+00   1.0000000000e+00   1.2500000000e-02  -1.7795688703e+00   5.2704391680e-06  -9.3993096865e-01
  -3.5700167580e+00  -3.5936533702e+00   1.0000000000e+00   1.2500000000e-02  -1.7169483469e+00   1.3211458755e-02  -9.7489311596e-01
  -3.5235239094e+00  -3.5463801457e+00   1.0000000000e+00   1.2500000000e-02  -1.6545302173e+00   2.5232000447e-02  -1.0063097522e+00
  -3.4784033604e+00  -3.5006676732e+00   1.0000000000e+00   1.2500000000e-02  -1.5923512196e+00   3.6064063626e-02  -1.0343453671e+00
  -3.4342667823e+00  -3.4561390476e+00   1.0000000000e+00   1.2500000000e-02  -1.5303924954e+00   4.5711668760e-02  -1.0591237822e+00
  -3.3907518579e+00  -3.4123945169e+00   1.0000000000e+00   1.2500000000e-02  -1.4686139583e+00   5.4174678721e-02  -1.0807072058e+00
  -3.3475398046e+00  -3.3691091988e+00   1.0000000000e+00   1.2500000000e-02  -1.4070052900e+00   6.1442251702e-02  -1.0990830167e+00
  -3.3043167827e+00  -3.3259704103e+00   1.0000000000e+00   1.2500000000e-02  -1.3455540258e+00   6.7498369777e-02  -1.1141762512e+00
  -3.2607586170e+00  -3.2826631551e+00   1.0000000000e+00   1.2500000000e-02  -1.2842466865e+00   7.2321944468e-02  -1.1258427268e+00
  -3.2165127926e+00  -3.2388540790e+00   1.0000000000e+00   1.2500000000e-02  -1.2230698303e+00   7.5887390049e-02  -1.1338564098e+00
  -3.1711748665e+00  -3.1941715062e+00   1.0000000000e+00   1.2500000000e-02  -1.1620110884e+00   7.8165979038e-02  -1.1378884712e+00
  -3.1242547719e+00  -3.1481782268e+00   1.0000000000e+00   1.2500000000e-02  -1.1010605781e+00   7.9128684696e-02  -1.1374733081e+00
  -3.0751248673e+00  -3.1003313170e+00   1.0000000000e+00   1.2500000000e-02  -1.0402134864e+00   7.8752109986e-02  -1.1319527202e+00
  -3.0229340284e+00  -3.0499184177e+00   1.0000000000e+00   1.2500000000e-02  -9.7947575363e-01   7.7031235818e-02  -1.1203809886e+00
  -2.9664556312e+00  -2.9959496391e+00   1.0000000000e+00   1.2500000000e-02  -9.1887828660e-01   7.4008353693e-02  -1.1013551219e+00
  -2.9038011435e+00  -2.9369616233e+00   1.0000000000e+00   1.2500000000e-02  -8.5851791955e-01   6.9844207499e-02  -1.0726926930e+00
  -2.8318705489e+00  -2.8706406637e+00   1.0000000000e+00   1.2500000000e-02  -7.9870409329e-01   6.5013831127e-02  -1.0307974190e+00
  -2.7456584163e+00  -2.7931004340e+00   1.0000000000e+00   1.2500000000e-02  -7.4068553025e-01   6.0925179392e-02  -9.6968305696e-01
  -2.6398541445e+00  -2.6982163986e+00   1.0000000000e+00   1.2500000000e-02  -6.8928753041e-01   6.1735392968e-02  -8.8204154697e-01
  -2.5148096808e+00  -2.5814918905e+00   1.0000000000e+00   1.2500000000e-02  -6.5313240302e-01   7.6501686038e-02  -7.6716134763e-01
  -2.3785821889e+00  -2.4481274711e+00   1.0000000000e+00   1.2500000000e-02  -6.3464336537e-01   1.1554643331e-01  -6.3720735028e-01
  -2.2392215048e+00  -2.3090369068e+00   1.0000000000e+00   1.2500000000e-02  -6.2551413225e-01   1.8290710280e-01  -5.0817509592e-01
  -2.1004354036e+00  -2.1694061027e+00   1.0000000000e+00   1.2500000000e-02  -6.1403083077e-01   2.7548642980e-01  -3.9096503614e-01
  -1.9671725353e+00  -2.0314647044e+00   1.0000000000e+00   1.2500000000e-02  -5.9060640063e-01   3.8268967939e-01  -2.9267716322e-01
  -1.8468971575e+00  -1.9028803663e+00   1.0000000000e+00   1.2500000000e-02  -5.5229900023e-01   4.8830617038e-01  -2.1593214645e-01
  -1.7434375012e+00  -1.7909139486e+00   1.0000000000e+00   1.2500000000e-02  -5.0312631732e-01   5.8070226194e-01  -1.5806530087e-01
  -1.6551656564e+00  -1.6959610539e+00   1.0000000000e+00   1.2500000000e-02  -4.4827719752e-01   6.5727412142e-01  -1.1414449658e-01
  -1.5783477899e+00  -1.6143702588e+00   1.0000000000e+00   1.2500000000e-02  -3.9079159881e-01   7.2012931908e-01  -7.9826529145e-02
  -1.5096674168e+00  -1.5423253210e+00   1.0000000000e+00   1.2500000000e-02  -3.3200885147e-01   7.7205901178e-01  -5.2155504749e-02
  -1.4467514654e+00  -1.4770095127e+00   1.0000000000e+00   1.2500000000e-02  -2.7250099144e-01   8.1528885299e-01  -2.9263941959e-02
  -1.3879632468e+00  -1.4164934182e+00   1.0000000000e+00   1.2500000000e-02  -2.1253371037e-01   8.5142206688e-01  -9.9560119002e-03
  -1.3321424017e+00  -1.3594330755e+00   1.0000000000e+00   1.2500000000e-02  -1.5224175573e-01   8.8160153508e-01   6.5689636103e-03
  -1.2784276392e+00  -1.3048517280e+00   1.0000000000e+00   1.2500000000e-02  -9.1699262236e-02   9.0664852003e-01   2.0873938473e-02
  -1.2261466282e+00  -1.2520035505e+00   1.0000000000e+00   1.2500000000e-02  -3.0951184080e-02   9.2715675368e-01   3.3373358080e-02
  -1.1747480493e+00  -1.2002897060e+00   1.0000000000e+00   1.2500000000e-02   2.9970055594e-02   9.4355390948e-01   4.4385368352e-02
  -1.1237492267e+00  -1.1492063926e+00   1.0000000000e+00   1.2500000000e-02   9.1044975567e-02   9.5614500486e-01   5.4165545377e-02
  -1.0727037145e+00  -1.0982920608e+00   1.0000000000e+00   1.2500000000e-02   1.5226326290e-01   9.6513802072e-01   6.2926819412e-02
  -1.0211975749e+00  -1.0471153683e+00   1.0000000000e+00   1.2500000000e-02   2.1359439218e-01   9.7066005048e-01   7.0849479392e-02
  -9.6883043266e-01  -9.9527978160e-01   1.0000000000e+00   1.2500000000e-02   2.7498116387e-01   9.7277793735e-01   7.8091083385e-02
  -9.1518360164e-01  -9.4238108373e-01   1.0000000000e+00   1.2500000000e-02   3.3634818419e-01   9.7151430344e-01   8.4793612378e-02
  -8.5979561039e-01  -8.8798611955e-01   1.0000000000e+00   1.2500000000e-02   3.9759463854e-01   9.6685926403e-01   9.1085230464e-02
  -8.0212844923e-01  -8.3160510124e-01   1.0000000000e+00   1.2500000000e-02   4.5858413255e-01   9.5878145768e-01   9.7078789905e-02
  -7.4151692954e-01  -7.7265179722e-01   1.0000000000e+00   1.2500000000e-02   5.1912903256e-01   9.4723889870e-01   1.0286647645e-01
  -6.7708774213e-01  -7.1038206186e-01   1.0000000000e+00   1.2500000000e-02   5.7896390761e-01   9.3219011561e-01   1.0850922110e-01
  -6.0762369321e-01  -6.4379342239e-01   1.0000000000e+00   1.2500000000e-02   6.3769480518e-01   9.1360659654e-01   1.1401775298e-01
  -5.3133098422e-01  -5.7145396403e-01   1.0000000000e+00   1.2500000000e-02   6.9468764866e-01   8.9149143455e-01   1.1931761810e-01
  -4.4546944505e-01  -4.9120800442e-01   1.0000000000e+00   1.2500000000e-02   7.4878250836e-01   8.6593067567e-01   1.2417791391e-01
  -3.4607506322e-01  -3.9973088568e-01   1.0000000000e+00   1.2500000000e-02   7.9747541131e-01   8.3731251337e-01   1.2805336991e-01
  -2.2943404348e-01  -2.9241924077e-01   1.0000000000e+00   1.2500000000e-02   8.3500536251e-01   8.0708955631e-01   1.2981506654e-01
  -9.8035817054e-02  -1.6644884619e-01   1.0000000000e+00   1.2500000000e-02   8.5169364040e-01   7.7839424091e-01   1.2793799502e-01
   3.5289970682e-02  -2.9622787923e-02   1.0000000000e+00   1.2500000000e-02   8.4163136182e-01   7.5300421255e-01   1.2220056492e-01
   1.5697230229e-01   1.0020272929e-01   1.0000000000e+00   1.2500000000e-02   8.1032775923e-01   7.2874603919e-01   1.1439488041e-01
   2.6339131886e-01   2.1374187529e-01   1.0000000000e+00   1.2500000000e-02   7.6737238432e-01   7.0274272821e-01   1.0612594601e-01
   3.5764348212e-01   3.1304076242e-01   1.0000000000e+00   1.2500000000e-02   7.1870102182e-01   6.7317392399e-01   9.7873647289e-02
   4.4344700129e-01   4.0224620182e-01   1.0000000000e+00   1.2500000000e-02   6.6715803623e-01   6.3900007293e-01   8.9578856076e-02
   5.2366381770e-01   4.8464780077e-01   1.0000000000e+00   1.2500000000e-02   6.1416412506e-01   5.9950758019e-01   8.1029824147e-02
   6.0046874734e-01   5.6267983464e-01   1.0000000000e+00   1.2500000000e-02   5.6049269150e-01   5.5400537016e-01   7.1984191926e-02
   6.7565327325e-01   6.3825766004e-01   1.0000000000e+00   1.2500000000e-02   5.0660469598e-01   5.0163036265e-01   6.2201508976e-02
   7.5086952881e-01   7.1304888646e-01   1.0000000000e+00   1.2500000000e-02   4.5281715608e-01   4.4118371315e-01   5.1449079694e-02
   8.2784557655e-01   7.8869017116e-01   1.0000000000e+00   1.2500000000e-02   3.9941385536e-01   3.7093742207e-01   3.9501996253e-02
   9.0862232050e-01   8.6700098193e-01   1.0000000000e+00   1.2500000000e-02   3.4675919779e-01   2.8835933122e-01   2.6150114008e-02
   9.9584586436e-01   9.5024365907e-01   1.0000000000e+00   1.2500000000e-02   2.9549202773e-01   1.8973321224e-01   1.1236482749e-02
   1.0930093446e+00   1.0414480697e+00   1.0000000000e+00   1.2500000000e-02   2.4697013862e-01   6.9897621522e-02  -5.1950148660e-03
   1.2038805018e+00   1.1445706195e+00   1.0000000000e+00   1.2500000000e-02   2.0424343069e-01  -7.6464938075e-02  -2.2435295951e-02
   1.3295997956e+00   1.2631903841e+00   1.0000000000e+00   1.2500000000e-02   1.7280307591e-01  -2.4873620699e-01  -3.8326626008e-02
   1.4655394030e+00   1.3960092071e+00   1.0000000000e+00   1.2500000000e-02   1.5767891110e-01  -4.3247910900e-01  -4.9805115269e-02
   1.6039238312e+00   1.5350695989e+00   1.0000000000e+00   1.2500000000e-02   1.5878072152e-01  -6.0350559817e-01  -5.5680633314e-02
   1.7395550290e+00   1.6727780635e+00   1.0000000000e+00   1.2500000000e-02   1.7219054814e-01  -7.4119308751e-01  -5.7502058903e-02
   1.8710229548e+00   1.8063319945e+00   1.0000000000e+00   1.2500000000e-02   1.9406499499e-01  -8.3412104458e-01  -5.7655944314e-02
   1.9984871230e+00   1.9357139150e+00   1.0000000000e+00   1.2500000000e-02   2.2209269188e-01  -8.7837985351e-01  -5.7790190574e-02
   2.1219651794e+00   2.0612603309e+00   1.0000000000e+00   1.2500000000e-02   2.5531983213e-01  -8.7609967092e-01  -5.8284890813e-02
   2.2407371539e+00   2.1826700280e+00   1.0000000000e+00   1.2500000000e-02   2.9364366829e-01  -8.3495271330e-01  -5.8391518858e-02
   2.3533876129e+00   2.2988042799e+00   1.0000000000e+00   1.2500000000e-02   3.3722672306e-01  -7.6683861577e-01  -5.6874604203e-02
   2.4583145064e+00   2.4079709460e+00   1.0000000000e+00   1.2500000000e-02   3.8592864064e-01  -6.8498332395e-01  -5.2838871273e-02
   2.5544560822e+00   2.5086580668e+00   1.0000000000e+00   1.2500000000e-02   4.3903664781e-01  -6.0052008906e-01  -4.6188718636e-02
   2.6417102808e+00   2.6002540976e+00   1.0000000000e+00   1.2500000000e-02   4.9544414375e-01  -5.2057476171e-01  -3.7477773706e-02
   2.7208105407e+00   2.6831664641e+00   1.0000000000e+00   1.2500000000e-02   5.5403310964e-01  -4.4849322950e-01  -2.7481081514e-02
   2.7929296140e+00   2.7584546173e+00   1.0000000000e+00   1.2500000000e-02   6.1393707897e-01  -3.8513639080e-01  -1.6884600255e-02
   2.8593291505e+00   2.8274046106e+00   1.0000000000e+00   1.2500000000e-02   6.7459777385e-01  -3.3011780108e-01  -6.1814978797e-03
   2.9211624796e+00   2.8912536904e+00   1.0000000000e+00   1.2500000000e-02   7.3570005698e-01  -2.8258806629e-01   4.3122517652e-03
   2.9794045951e+00   2.9510712688e+00   1.0000000000e+00   1.2500000000e-02   7.9708193090e-01  -2.4162360372e-01   1.4409072308e-02
   3.0348528203e+00   3.0077379213e+00   1.0000000000e+00   1.2500000000e-02   8.5866521709e-01  -2.0638093067e-01   2.4006339412e-02
   3.0881548165e+00   3.0619677193e+00   1.0000000000e+00   1.2500000000e-02   9.2041292275e-01  -1.7613924374e-01   3.3056397959e-02
   3.1398413023e+00   3.1143419138e+00   1.0000000000e+00   1.2500000000e-02   9.8230581745e-01  -1.5029794722e-01   4.1547682654e-02
   3.1903549787e+00   3.1653406908e+00   1.0000000000e+00   1.2500000000e-02   1.0443305633e+00  -1.2835909805e-01   4.9493177944e-02
   3.2400701568e+00   3.2153692665e+00   1.0000000000e+00   1.2500000000e-02   1.1064697000e+00  -1.0990794529e-01   5.6922811640e-02
   3.2893243930e+00   3.2647710471e+00   1.0000000000e+00   1.2500000000e-02   1.1687161644e+00  -9.4587375952e-02   6.3881088538e-02
   3.3384287044e+00   3.3138777390e+00   1.0000000000e+00   1.2500000000e-02   1.2310678882e+00  -8.2084402738e-02   7.0422989479e-02
   3.3876607848e+00   3.3629796698e+00   1.0000000000e+00   1.2500000000e-02   1.2935027095e+00  -7.2116723144e-02   7.6609295405e-02
   3.4372820005e+00   3.4123418999e+00   1.0000000000e+00   1.2500000000e-02   1.3559853336e+00  -6.4411779954e-02   8.2505683161e-02
   3.4875508042e+00   3.4622221012e+00   1.0000000000e+00   1.2500000000e-02   1.4184697233e+00  -5.8688453398e-02   8.8180798117e-02
   3.5387327888e+00   3.5128795072e+00   1.0000000000e+00   1.2500000000e-02   1.4808951273e+00  -5.4638721380e-02   9.3703125266e-02
   3.5911138188e+00   3.5645860704e+00   1.0000000000e+00   1.2500000000e-02   1.5431820678e+00  -5.1906841064e-02   9.9137073422e-02
   3.6450190061e+00   3.6176415672e+00   1.0000000000e+00   1.2500000000e-02   1.6052290569e+00  -5.0064593433e-02   1.0453810672e-01
   3.7008417321e+00   3.6723964449e+00   1.0000000000e+00   1.2500000000e-02   1.6669105269e+00  -4.8580111529e-02   1.0994675463e-01
   3.7590889208e+00   3.7292870192e+00   1.0000000000e+00   1.2500000000e-02   1.7280749668e+00  -4.6775382304e-02   1.1538112031e-01
   3.8204532466e+00   3.7888908224e+00   1.0000000000e+00   1.2500000000e-02   1.7885401673e+00  -4.3762307294e-02   1.2082693454e-01
   3.8859315404e+00   3.8520156708e+00   1.0000000000e+00   1.2500000000e-02   1.8480780738e+00  -3.8336493507e-02   1.2622271565e-01
   3.9570237170e+00   3.9198474099e+00   1.0000000000e+00   1.2500000000e-02   1.9063706808e+00  -2.8786037104e-02   1.3143397911e-01
   4.0360555294e+00   3.9942000240e+00   1.0000000000e+00   1.2500000000e-02   1.9628815949e+00  -1.2533031659e-02   1.3620136607e-01
   4.1265150586e+00   4.0779110347e+00   1.0000000000e+00   1.2500000000e-02   2.0164475759e+00   1.4475230394e-02   1.4002676374e-01
   4.2323773513e+00   4.1751190826e+00   1.0000000000e+00   1.2500000000e-02   2.0642191176e+00   5.8141806637e-02   1.4197787429e-01
   4.3547961890e+00   4.2896356199e+00   1.0000000000e+00   1.2500000000e-02   2.1013644297e+00   1.2386293401e-01   1.4079800449e-01
   4.4890026093e+00   4.4199567581e+00   1.0000000000e+00   1.2500000000e-02   2.1259485909e+00   2.0963373892e-01   1.3618802177e-01
   4.6271348384e+00   4.5580484605e+00   1.0000000000e+00   1.2500000000e-02   2.1447030965e+00   3.0231380793e-01   1.3015411401e-01
   4.7615906019e+00   4.6962212164e+00   1.0000000000e+00   1.2500000000e-02   2.1696981555e+00   3.8350925752e-01   1.2618147133e-01
   4.8836990484e+00   4.8269599875e+00   1.0000000000e+00   1.2500000000e-02   2.2091244149e+00   4.3914628474e-01   1.2698295845e-01
   4.9869405578e+00   4.9404381093e+00   1.0000000000e+00   1.2500000000e-02   2.2603733714e+00   4.6769017206e-01   1.3249051019e-01
   5.0723203019e+00   5.0334430063e+00   1.0000000000e+00   1.2500000000e-02   2.3164098448e+00   4.7713774934e-01   1.4091349383e-01
   5.1452279118e+00   5.1111975974e+00   1.0000000000e+00   1.2500000000e-02   2.3739093132e+00   4.7498945944e-01   1.5100742491e-01
   5.2101538213e+00   5.1792582262e+00   1.0000000000e+00   1.2500000000e-02   2.4320560571e+00   4.6552951577e-01   1.6222575724e-01
   5.2698592115e+00   5.2410494163e+00   1.0000000000e+00   1.2500000000e-02   2.4906169372e+00   4.5112546488e-01   1.7430136002e-01
