# time = 0
# Grid points = 408
# Domain Size = 7
# Pressure (Pa) = 101325
#             1_pos             2_posf             3_rho             4_dvisc             5_uvel             6_vvel             7_wvel
  -6.9456283167e+00  -7.0000000000e+00   1.0000000000e+00   1.8500000000e-04   4.4029161889e-01   6.6632013079e-01   5.4834209027e-02
  -6.8370757081e+00  -6.8912566335e+00   1.0000000000e+00   1.8500000000e-04   6.3846839336e-01   6.2216830966e-01  -1.8553391502e-01
  -6.7214960781e+00  -6.7828947827e+00   1.0000000000e+00   1.8500000000e-04   5.4023684912e-01   5.7701161965e-01  -2.8833034190e-01
  -6.6293980212e+00  -6.6600973735e+00   1.0000000000e+00   1.8500000000e-04   5.9496826340e-01   5.2859520430e-01  -2.0338936765e-01
  -6.5679993165e+00  -6.5986986688e+00   1.0000000000e+00   1.8500000000e-04  -7.2288577318e-02   4.5501185687e-01  -7.8130698524e-02
  -6.5186653060e+00  -6.5372999642e+00   1.0000000000e+00   1.8500000000e-04  -7.1748294318e-01   3.7654866205e-01   8.6462948669e-02
  -6.4813959898e+00  -6.5000306479e+00   1.0000000000e+00   1.8500000000e-04  -7.5012193095e-01   3.2844055131e-01   1.8600333708e-01
  -6.4508281044e+00  -6.4627613316e+00   1.0000000000e+00   1.8500000000e-04  -7.5157569229e-01   2.7171162822e-01  -7.6242955934e-03
  -6.4331545348e+00  -6.4388948771e+00   1.0000000000e+00   1.8500000000e-04  -6.9452265007e-01   1.9801516319e-01  -2.2362405574e-01
  -6.4217691721e+00  -6.4274141926e+00   1.0000000000e+00   1.8500000000e-04  -3.7214698566e-01   7.3482636701e-02  -2.8139996720e-01
  -6.4025123730e+00  -6.4161241516e+00   1.0000000000e+00   1.8500000000e-04   9.2202380832e-02  -1.8348235113e-01  -1.8166159300e-01
  -6.3594146138e+00  -6.3889005944e+00   1.0000000000e+00   1.8500000000e-04   4.5393323033e-01  -4.0012301630e-01   3.2398789886e-02
  -6.3004426528e+00  -6.3299286333e+00   1.0000000000e+00   1.8500000000e-04   6.1077760657e-01  -6.4685872547e-01   2.3323704123e-01
  -6.2256634815e+00  -6.2709566722e+00   1.0000000000e+00   1.8500000000e-04   3.5723229206e-01  -7.5940509452e-01   2.7329382515e-01
  -6.1350771002e+00  -6.1803702909e+00   1.0000000000e+00   1.8500000000e-04   1.0879062802e-01  -3.9294681006e-01   2.2442394470e-01
  -6.0482522542e+00  -6.0897839095e+00   1.0000000000e+00   1.8500000000e-04  -8.8891381752e-02  -1.8392133652e-01  -2.2068651968e-02
  -5.9651889436e+00  -6.0067205989e+00   1.0000000000e+00   1.8500000000e-04  -2.8008054808e-01  -1.4403813139e-01  -2.2141987867e-01
  -5.8821256329e+00  -5.9236572882e+00   1.0000000000e+00   1.8500000000e-04  -5.5889711611e-01  -3.7169015596e-01  -3.1839914172e-01
  -5.7990623222e+00  -5.8405939775e+00   1.0000000000e+00   1.8500000000e-04  -6.6432925705e-01  -6.9133200435e-01  -3.4634708827e-01
  -5.7318238455e+00  -5.7575306668e+00   1.0000000000e+00   1.8500000000e-04  -5.8419326786e-01  -8.8023867256e-01  -2.9968740928e-01
  -5.6909016487e+00  -5.7061170242e+00   1.0000000000e+00   1.8500000000e-04  -3.5368384000e-01  -9.4238111531e-01   3.4251561295e-02
  -5.6528312080e+00  -5.6756862733e+00   1.0000000000e+00   1.8500000000e-04  -1.4764619141e-01  -7.6118827217e-01   5.1468137813e-01
  -5.6071210772e+00  -5.6299761426e+00   1.0000000000e+00   1.8500000000e-04   3.9215782052e-02  -6.1891569658e-01   8.7098342174e-01
  -5.5614109465e+00  -5.5842660119e+00   1.0000000000e+00   1.8500000000e-04   2.3401559662e-01  -3.6457424669e-01   1.0764151730e+00
  -5.5157008158e+00  -5.5385558812e+00   1.0000000000e+00   1.8500000000e-04   4.5890715534e-01  -9.8078663472e-02   9.7892786718e-01
  -5.4792951183e+00  -5.4928457505e+00   1.0000000000e+00   1.8500000000e-04   6.9555772778e-01   2.3395791092e-01   1.0343706273e+00
  -5.4514898984e+00  -5.4657444860e+00   1.0000000000e+00   1.8500000000e-04   8.0984061811e-01   3.3834600520e-01   3.4935677473e-01
  -5.4055657365e+00  -5.4372353107e+00   1.0000000000e+00   1.8500000000e-04   8.4516372476e-01   3.5094594413e-01  -3.0542879653e-01
  -5.3461466421e+00  -5.3738961622e+00   1.0000000000e+00   1.8500000000e-04   8.5268040912e-01   5.7420303940e-01  -3.2502442715e-01
  -5.2906476021e+00  -5.3183971221e+00   1.0000000000e+00   1.8500000000e-04   8.4806138432e-01   7.2098671362e-01  -3.3002625354e-01
  -5.2439426616e+00  -5.2628980821e+00   1.0000000000e+00   1.8500000000e-04   7.5293898183e-01   7.4688423287e-01  -2.7601525820e-01
  -5.2098325714e+00  -5.2249872410e+00   1.0000000000e+00   1.8500000000e-04   5.4939755483e-01   3.9714747278e-01   5.4352495670e-02
  -5.1790021152e+00  -5.1946779018e+00   1.0000000000e+00   1.8500000000e-04   3.3421946255e-01   8.7773647188e-02   5.3477051600e-01
  -5.1476505419e+00  -5.1633263285e+00   1.0000000000e+00   1.8500000000e-04   1.2610777655e-01   6.4336170376e-02   9.0855400272e-01
  -5.1208037744e+00  -5.1319747552e+00   1.0000000000e+00   1.8500000000e-04   2.8020784818e-01   2.2250256541e-01   1.0717255251e+00
  -5.1025914349e+00  -5.1096327937e+00   1.0000000000e+00   1.8500000000e-04   4.8290598567e-01   1.3988172046e-01   8.1595583814e-01
  -5.0867676210e+00  -5.0955500761e+00   1.0000000000e+00   1.8500000000e-04   7.2556037702e-01  -2.7645142401e-02   5.6359479550e-01
  -5.0633199640e+00  -5.0779851659e+00   1.0000000000e+00   1.8500000000e-04   8.2132366741e-01  -3.2822515407e-01   3.6185659426e-01
  -5.0339895601e+00  -5.0486547620e+00   1.0000000000e+00   1.8500000000e-04   5.5430042262e-01  -6.1008596655e-01   1.6605543420e-01
  -4.9899939543e+00  -5.0193243582e+00   1.0000000000e+00   1.8500000000e-04   3.2413459301e-01  -9.2492374402e-01  -1.1990356178e-01
  -4.9143841255e+00  -4.9606635504e+00   1.0000000000e+00   1.8500000000e-04   7.3237906092e-02  -1.0489534848e+00  -2.2441663525e-01
  -4.8218252759e+00  -4.8681047007e+00   1.0000000000e+00   1.8500000000e-04  -2.1053727917e-01  -1.1085474589e+00  -1.3827441544e-01
  -4.7292664261e+00  -4.7755458510e+00   1.0000000000e+00   1.8500000000e-04  -3.5369515653e-01  -1.1650358114e+00   1.0388368257e-01
  -4.6598472889e+00  -4.6829870013e+00   1.0000000000e+00   1.8500000000e-04  -2.6791142312e-01  -1.2525814581e+00   3.1912825474e-01
  -4.6135678641e+00  -4.6367075765e+00   1.0000000000e+00   1.8500000000e-04  -4.2125754519e-01  -1.1906162634e+00   5.1351813247e-01
  -4.5733901601e+00  -4.5904281516e+00   1.0000000000e+00   1.8500000000e-04  -7.7350858021e-01  -1.0266748540e+00   7.1532613216e-01
  -4.5393422093e+00  -4.5563521686e+00   1.0000000000e+00   1.8500000000e-04  -7.0854742767e-01  -7.2766164654e-01   9.4728137409e-01
  -4.5038665630e+00  -4.5223322501e+00   1.0000000000e+00   1.8500000000e-04  -4.0934370031e-01  -4.7736933537e-01   1.1903057332e+00
  -4.4779779066e+00  -4.4854008760e+00   1.0000000000e+00   1.8500000000e-04  -1.2631408897e-01  -2.3147101098e-01   1.3070074888e+00
  -4.4636549445e+00  -4.4705549372e+00   1.0000000000e+00   1.8500000000e-04   2.8173847363e-02   3.6451565790e-02   1.3424517668e+00
  -4.4433502356e+00  -4.4567549518e+00   1.0000000000e+00   1.8500000000e-04   9.3335631697e-02   1.5183291801e-01   1.3475330739e+00
  -4.4053411693e+00  -4.4299455195e+00   1.0000000000e+00   1.8500000000e-04   7.8886962201e-02   1.1659676209e-01   1.3427577183e+00
  -4.3703812108e+00  -4.3807368191e+00   1.0000000000e+00   1.8500000000e-04   2.9900672897e-02   1.1658763086e-02   1.2478132526e+00
  -4.3513741451e+00  -4.3600256024e+00   1.0000000000e+00   1.8500000000e-04  -7.4725378564e-03  -1.2284768660e-01   1.0371394768e+00
  -4.3211407356e+00  -4.3427226877e+00   1.0000000000e+00   1.8500000000e-04  -4.6100910001e-02  -1.9990342699e-01   8.2099946266e-01
  -4.2857337932e+00  -4.2995587834e+00   1.0000000000e+00   1.8500000000e-04  -6.0950837517e-02  -2.8497265685e-01   6.1170427088e-01
  -4.2532629583e+00  -4.2719088031e+00   1.0000000000e+00   1.8500000000e-04  -6.9382742012e-02  -4.2563704941e-01   7.6883502820e-01
  -4.2250672482e+00  -4.2346171136e+00   1.0000000000e+00   1.8500000000e-04   1.2964187843e-01  -4.0474238017e-01   9.7270514772e-01
  -4.1978670810e+00  -4.2155173828e+00   1.0000000000e+00   1.8500000000e-04   5.4413545770e-01  -3.4690301061e-01   1.2267528176e+00
  -4.1703487023e+00  -4.1802167791e+00   1.0000000000e+00   1.8500000000e-04   7.8568337757e-01  -2.6982881024e-01   1.3253706261e+00
  -4.1437742793e+00  -4.1604806255e+00   1.0000000000e+00   1.8500000000e-04   9.3611503232e-01  -2.0748150267e-01   9.9787391707e-01
  -4.0935497438e+00  -4.1270679332e+00   1.0000000000e+00   1.8500000000e-04   1.1114081519e+00  -1.4081613292e-01   7.1120838212e-01
  -4.0265133650e+00  -4.0600315544e+00   1.0000000000e+00   1.8500000000e-04   1.2147491206e+00  -1.9392351111e-02   3.8279506413e-01
  -3.9259587967e+00  -3.9929951755e+00   1.0000000000e+00   1.8500000000e-04   1.2131067878e+00   1.7657670584e-02  -1.4219691511e-02
  -3.8103914923e+00  -3.8589224179e+00   1.0000000000e+00   1.8500000000e-04   1.1571685643e+00  -7.1098945792e-02  -2.1650795033e-01
  -3.7133296410e+00  -3.7618605667e+00   1.0000000000e+00   1.8500000000e-04   1.0592942277e+00  -1.3950546514e-01  -7.3101799551e-02
  -3.6265856856e+00  -3.6647987154e+00   1.0000000000e+00   1.8500000000e-04   8.8657402667e-01  -2.1618328741e-01  -2.5210228094e-01
  -3.5501596259e+00  -3.5883726557e+00   1.0000000000e+00   1.8500000000e-04   6.0692102632e-01  -2.7003272341e-01  -6.4059509324e-01
  -3.4693659908e+00  -3.5119465960e+00   1.0000000000e+00   1.8500000000e-04   3.5409931257e-01  -2.9975358497e-01  -5.4571161995e-01
  -3.3842047803e+00  -3.4267853855e+00   1.0000000000e+00   1.8500000000e-04   6.1082597130e-02  -8.0119248452e-02  -1.7894958141e-01
  -3.2956000367e+00  -3.3416241750e+00   1.0000000000e+00   1.8500000000e-04   9.6539773837e-02  -4.5073033964e-02   1.5122658017e-01
  -3.2035517600e+00  -3.2495758984e+00   1.0000000000e+00   1.8500000000e-04   3.8964579103e-03  -2.9475165869e-01   2.8342017256e-01
  -3.1356868406e+00  -3.1575276217e+00   1.0000000000e+00   1.8500000000e-04  -1.4021680603e-01  -3.0239279227e-01   2.7170964841e-01
  -3.0789644308e+00  -3.1138460595e+00   1.0000000000e+00   1.8500000000e-04  -9.1377626507e-02  -1.9569569472e-01   1.2568316130e-01
  -3.0092011735e+00  -3.0440828021e+00   1.0000000000e+00   1.8500000000e-04  -3.7947334478e-02   4.2031143806e-02  -9.4935208161e-02
  -2.9191357188e+00  -2.9743195448e+00   1.0000000000e+00   1.8500000000e-04   1.2884470323e-02  -1.4382976784e-01  -2.2216253593e-01
  -2.8355568355e+00  -2.8639518929e+00   1.0000000000e+00   1.8500000000e-04   2.0449650938e-02  -3.7215306992e-01  -3.0497809176e-01
  -2.7672275354e+00  -2.8071617781e+00   1.0000000000e+00   1.8500000000e-04   1.6042210592e-02  -5.6156864539e-01  -3.1448436429e-01
  -2.6686868784e+00  -2.7272932928e+00   1.0000000000e+00   1.8500000000e-04  -1.0695461229e-01  -7.9503223885e-01  -2.7849609869e-01
  -2.5807772570e+00  -2.6100804641e+00   1.0000000000e+00   1.8500000000e-04  -4.3728291087e-01  -9.6083862130e-01  -2.9716450550e-02
  -2.5368224462e+00  -2.5514740498e+00   1.0000000000e+00   1.8500000000e-04  -7.4269849239e-01  -9.2306977212e-01   3.9487338683e-01
  -2.5075192390e+00  -2.5221708426e+00   1.0000000000e+00   1.8500000000e-04  -6.8658822911e-01  -7.3294140347e-01   6.2684187378e-01
  -2.4850016633e+00  -2.4928676354e+00   1.0000000000e+00   1.8500000000e-04  -5.8651857545e-01  -4.7167161393e-01   7.8034756153e-01
  -2.4697977810e+00  -2.4771356912e+00   1.0000000000e+00   1.8500000000e-04  -7.9667229213e-01  -2.2695133266e-01   9.5018284112e-01
  -2.4587909155e+00  -2.4624598707e+00   1.0000000000e+00   1.8500000000e-04  -5.7768363227e-01   2.4074909675e-02   1.0238102015e+00
  -2.4514530053e+00  -2.4551219604e+00   1.0000000000e+00   1.8500000000e-04  -2.8344119025e-01   3.2208207792e-01   9.8684990151e-01
  -2.4460392820e+00  -2.4477840501e+00   1.0000000000e+00   1.8500000000e-04   1.3931050949e-03   4.0808807511e-01   8.4927233464e-01
  -2.4430322008e+00  -2.4442945139e+00   1.0000000000e+00   1.8500000000e-04   8.9751939861e-02   2.2664172015e-01   7.0002478965e-01
  -2.4402409579e+00  -2.4417698876e+00   1.0000000000e+00   1.8500000000e-04   6.0268638591e-02   1.6949338634e-01   5.3789683405e-01
  -2.4349147573e+00  -2.4387120283e+00   1.0000000000e+00   1.8500000000e-04  -1.5087992544e-01   6.5210640889e-02   3.7233884334e-01
  -2.4273202153e+00  -2.4311174863e+00   1.0000000000e+00   1.8500000000e-04  -4.6458461214e-01  -1.1066888737e-01   2.4105595460e-01
  -2.4159284023e+00  -2.4235229443e+00   1.0000000000e+00   1.8500000000e-04  -6.9469374522e-01  -1.1719318892e-01   1.0485058765e-01
  -2.4052096502e+00  -2.4083338602e+00   1.0000000000e+00   1.8500000000e-04  -6.0039999659e-01   8.6449160809e-02   2.1561273728e-01
  -2.4006678883e+00  -2.4020854403e+00   1.0000000000e+00   1.8500000000e-04  -4.4215266679e-01   3.7448036909e-01   2.2369180738e-01
  -2.3977589630e+00  -2.3992503362e+00   1.0000000000e+00   1.8500000000e-04  -2.0372380146e-01   3.3577822318e-01   1.0264260881e-01
  -2.3934283004e+00  -2.3962675898e+00   1.0000000000e+00   1.8500000000e-04   1.1295766793e-01   1.4182997859e-01   5.2946490022e-02
  -2.3878049564e+00  -2.3905890110e+00   1.0000000000e+00   1.8500000000e-04   2.7028715265e-01  -7.6698276884e-02   4.2622090163e-02
  -2.3822368470e+00  -2.3850209017e+00   1.0000000000e+00   1.8500000000e-04   3.2374099324e-01  -3.3079456301e-01   3.4336212592e-02
  -2.3776223188e+00  -2.3794527923e+00   1.0000000000e+00   1.8500000000e-04   2.6755444843e-01  -5.4137580572e-01   2.5656149749e-02
  -2.3744762601e+00  -2.3757918453e+00   1.0000000000e+00   1.8500000000e-04   2.7976708245e-01  -7.6556884394e-01   9.4753531286e-03
  -2.3713895729e+00  -2.3731606750e+00   1.0000000000e+00   1.8500000000e-04   2.4085323270e-01  -1.0096177318e+00  -1.4203742732e-01
  -2.3653530945e+00  -2.3696184707e+00   1.0000000000e+00   1.8500000000e-04   3.1537550355e-01  -1.0269703753e+00  -6.1211127876e-01
  -2.3568223421e+00  -2.3610877183e+00   1.0000000000e+00   1.8500000000e-04   2.2289369973e-01  -9.4487032000e-01  -1.0164605649e+00
  -2.3440262135e+00  -2.3525569659e+00   1.0000000000e+00   1.8500000000e-04   2.6458989864e-01  -9.3538059758e-01  -9.7615142034e-01
  -2.3299424605e+00  -2.3354954612e+00   1.0000000000e+00   1.8500000000e-04   3.6540107316e-01  -7.3933681114e-01  -8.8401007434e-01
  -2.3211133786e+00  -2.3243894599e+00   1.0000000000e+00   1.8500000000e-04   6.2334057088e-03  -7.3046624037e-01  -1.1379695584e+00
  -2.3140411529e+00  -2.3178372974e+00   1.0000000000e+00   1.8500000000e-04   2.5689382733e-01  -7.3613170207e-01  -9.2604812992e-01
  -2.3050625250e+00  -2.3102450084e+00   1.0000000000e+00   1.8500000000e-04   2.0507858084e-01  -6.4299267089e-01  -5.4684158166e-01
  -2.2946975582e+00  -2.2998800416e+00   1.0000000000e+00   1.8500000000e-04  -6.7940830194e-02  -4.3873927524e-01  -1.8685565056e-01
  -2.2856305273e+00  -2.2895150748e+00   1.0000000000e+00   1.8500000000e-04  -3.1591622003e-01  -2.5425261530e-01  -9.7104784737e-02
  -2.2783616398e+00  -2.2817459797e+00   1.0000000000e+00   1.8500000000e-04  -4.1263136865e-01  -7.7066969297e-02  -1.4240160524e-01
  -2.2685298810e+00  -2.2749772999e+00   1.0000000000e+00   1.8500000000e-04  -2.0872396126e-01   1.1235128186e-01  -4.5536031559e-01
  -2.2518491586e+00  -2.2620824621e+00   1.0000000000e+00   1.8500000000e-04   1.0351620998e-01   1.9879098071e-01  -9.2277057653e-01
  -2.2313825518e+00  -2.2416158552e+00   1.0000000000e+00   1.8500000000e-04   9.4041215971e-02   1.0862335150e-01  -1.2010503489e+00
  -2.2118361796e+00  -2.2211492484e+00   1.0000000000e+00   1.8500000000e-04   2.8359148022e-01  -1.4638231718e-01  -1.1086849128e+00
  -2.1901950521e+00  -2.2025231108e+00   1.0000000000e+00   1.8500000000e-04   2.7092163339e-01  -3.1586764355e-01  -9.5789080111e-01
  -2.1495581629e+00  -2.1778669934e+00   1.0000000000e+00   1.8500000000e-04   3.1140970599e-02  -5.1200955738e-01  -7.3937970773e-01
  -2.0935285706e+00  -2.1212493324e+00   1.0000000000e+00   1.8500000000e-04  -2.2879264995e-01  -6.6970170369e-01  -4.4976003565e-01
  -2.0380870470e+00  -2.0658078088e+00   1.0000000000e+00   1.8500000000e-04  -9.3819323721e-02  -6.5202088444e-01  -2.9820825654e-01
  -1.9953197657e+00  -2.0103662852e+00   1.0000000000e+00   1.8500000000e-04   2.0748811676e-01  -4.7571430994e-01  -1.8402263022e-01
  -1.9709839669e+00  -1.9802732463e+00   1.0000000000e+00   1.8500000000e-04   3.3417187053e-01  -2.9946558177e-01  -9.9631900078e-02
  -1.9439876086e+00  -1.9616946876e+00   1.0000000000e+00   1.8500000000e-04   2.4474791999e-01  -1.2632249034e-01  -1.4876556857e-01
  -1.8821295894e+00  -1.9262805296e+00   1.0000000000e+00   1.8500000000e-04   2.0758807013e-01   1.0289027469e-01  -1.9314843260e-01
  -1.7938277090e+00  -1.8379786492e+00   1.0000000000e+00   1.8500000000e-04   3.4933176605e-01   3.5934950756e-01  -1.0257517052e-01
  -1.7055258286e+00  -1.7496767688e+00   1.0000000000e+00   1.8500000000e-04   4.5127239972e-01   5.9152891670e-01  -1.9875204907e-01
  -1.6172239482e+00  -1.6613748884e+00   1.0000000000e+00   1.8500000000e-04   3.3653496528e-01   6.2530097737e-01  -9.9950413646e-02
  -1.5109342548e+00  -1.5730730081e+00   1.0000000000e+00   1.8500000000e-04   2.4641387428e-01   8.5411195374e-01  -8.5042908193e-02
  -1.3866567484e+00  -1.4487955016e+00   1.0000000000e+00   1.8500000000e-04   3.8657146439e-01   8.6488205265e-01  -4.7008968583e-01
  -1.2996011745e+00  -1.3245179951e+00   1.0000000000e+00   1.8500000000e-04   2.0638137320e-01   9.1558037166e-01  -2.1861197494e-01
  -1.2497675335e+00  -1.2746843540e+00   1.0000000000e+00   1.8500000000e-04   4.2070501106e-01   9.0967733333e-01  -2.5270263090e-01
  -1.2078077697e+00  -1.2248507130e+00   1.0000000000e+00   1.8500000000e-04   2.4295173464e-01   7.1198992478e-01  -5.0787453533e-01
  -1.1557950250e+00  -1.1907648264e+00   1.0000000000e+00   1.8500000000e-04   8.4315962874e-02   6.8761818737e-01  -7.5283567394e-01
  -1.0858554222e+00  -1.1208252236e+00   1.0000000000e+00   1.8500000000e-04   8.5799032421e-02   4.8897206809e-01  -8.3626788690e-01
  -1.0072506370e+00  -1.0508856208e+00   1.0000000000e+00   1.8500000000e-04   4.3620482933e-02   4.4134714005e-01  -6.5048206429e-01
  -9.1998066950e-01  -9.6361565327e-01   1.0000000000e+00   1.8500000000e-04   2.6983280904e-01   2.6999860961e-01  -3.4158010858e-01
  -8.3489435853e-01  -8.7634568572e-01   1.0000000000e+00   1.8500000000e-04   4.3954362162e-01   1.3271355772e-01  -3.4245040540e-01
  -7.5199170415e-01  -7.9344303134e-01   1.0000000000e+00   1.8500000000e-04   7.9977983610e-01  -7.4792210920e-02  -1.2320593036e-01
  -6.9365009891e-01  -7.1054037696e-01   1.0000000000e+00   1.8500000000e-04   8.8034168888e-01  -2.5479159553e-01  -1.2738004592e-01
  -6.6792365478e-01  -6.7675982085e-01   1.0000000000e+00   1.8500000000e-04   8.0193039010e-01  -4.0793072554e-01  -3.8939844338e-01
  -6.5482357514e-01  -6.5908748870e-01   1.0000000000e+00   1.8500000000e-04   7.9992005907e-01  -6.3681655201e-01  -6.5291798038e-01
  -6.4225917602e-01  -6.5055966157e-01   1.0000000000e+00   1.8500000000e-04   7.9445215779e-01  -7.3377902862e-01  -5.0889772259e-01
  -6.3046194902e-01  -6.3395869046e-01   1.0000000000e+00   1.8500000000e-04   6.1574694336e-01  -6.4711688917e-01  -1.6201029969e-01
  -6.1994878038e-01  -6.2696520759e-01   1.0000000000e+00   1.8500000000e-04   6.0394572583e-01  -5.2331225186e-01  -1.7884049585e-02
  -6.0618328263e-01  -6.1293235317e-01   1.0000000000e+00   1.8500000000e-04   5.6896142488e-01  -3.6157099455e-01  -1.2575204488e-01
  -5.9345756912e-01  -5.9943421209e-01   1.0000000000e+00   1.8500000000e-04   4.4539217530e-01  -2.6231251243e-01  -1.8677929408e-01
  -5.7885571437e-01  -5.8748092615e-01   1.0000000000e+00   1.8500000000e-04   1.9078181353e-01  -4.4977267522e-01  -3.6837180505e-02
  -5.6160529081e-01  -5.7023050259e-01   1.0000000000e+00   1.8500000000e-04   2.8308283886e-02  -6.6226822002e-01   7.5611655974e-02
